Temperature, <E>, E_error, <|M|>, M_error, Heat Capacity c, c_error, Susceptibility chi, chi_error

1.000000 -4992.780586 0.250280 2498.147624 0.065454 0.024780 0.001536 0.001695 0.000109
1.100000 -4984.974722 0.342764 2496.133468 0.090654 0.038411 0.001737 0.002956 0.000146
1.200000 -4969.981800 0.503652 2492.139535 0.137545 0.069688 0.003344 0.006237 0.000361
1.300000 -4950.418605 0.653963 2486.879676 0.182335 0.100110 0.004637 0.010117 0.000477
1.400000 -4919.967644 0.850997 2478.337715 0.246206 0.146169 0.006813 0.017129 0.000814
1.500000 -4876.869565 1.062310 2466.056623 0.316487 0.198416 0.009213 0.026417 0.001287
1.600000 -4820.643074 1.283483 2448.996967 0.412673 0.254564 0.011319 0.042106 0.001999
1.700000 -4747.409505 1.566896 2426.076845 0.537311 0.336077 0.015221 0.067183 0.003501
1.800000 -4649.310415 1.933485 2392.471183 0.752677 0.456450 0.021082 0.124509 0.007797
1.900000 -4524.986855 2.222813 2346.944388 0.934777 0.541446 0.024113 0.181936 0.008658
2.000000 -4365.326593 2.683552 2280.186047 1.294195 0.712224 0.032406 0.331303 0.016090
2.100000 -4158.010111 3.168158 2174.113246 2.026946 0.900391 0.040470 0.773965 0.036007
2.200000 -3875.041456 4.290012 1974.810920 4.639153 1.504278 0.064600 3.870000 0.222164
2.300000 -3360.355915 5.495909 969.148635 18.454994 2.258810 0.095771 58.580933 1.580821
2.400000 -3034.798787 4.307762 674.750253 12.428899 1.274493 0.060462 25.463048 0.910839
2.500000 -2762.932255 3.752989 344.101112 7.761275 0.891519 0.041541 9.531966 0.423301
2.600000 -2575.219414 3.412076 240.220425 5.762905 0.681313 0.029189 5.053193 0.255662
2.700000 -2412.570273 3.420803 194.816987 4.670180 0.635016 0.030415 3.195654 0.149984
2.800000 -2271.963600 3.248369 172.127401 4.093121 0.532440 0.024826 2.367050 0.124309
2.900000 -2151.551062 3.003252 151.555106 3.634373 0.424271 0.018887 1.801845 0.093274
3.000000 -2044.744186 2.946715 133.874621 3.171207 0.381672 0.017954 1.326124 0.074059
